% The mean value of Mx, the standard deviation of Mx, the mean value of My, the standard deviation of My, the mean value of Mz, the standard deviation of Mz based on the values given for the micromagnetic standard problem 4, field 2 as given on the mumag NIST website.
0.966928611268868	0.000999025995670591	0.125354857438480	0.00165738927355118	3.57423148269602e-05	9.61697762708920e-05
0.966892601907062	0.00100480438978783	0.125293078343047	0.00164932057328640	0.000360767082744775	0.000149420374256597
0.966817376262779	0.00100845105152952	0.125171492988935	0.00164971812235097	0.000647920143816170	0.000152046523558456
0.966712361141633	0.00100870560267834	0.124983597855003	0.00165799918236210	0.000931999905547956	0.000153590371912766
0.966556956834787	0.00101649050777741	0.124721202476602	0.00166032365476816	0.00121294803712201	0.000153804910527669
0.966364660903805	0.00102416021273638	0.124402850671716	0.00166312108809199	0.00149148672828436	0.000154259431160184
0.966131104485462	0.00103299383401558	0.124014402464013	0.00167072137115420	0.00176819627678984	0.000153922595653380
0.965853343730065	0.00104477693124810	0.123564358231430	0.00167587342515153	0.00204276664589641	0.000153740711255126
0.965543381382114	0.00105333183401919	0.123042839582363	0.00168752692331796	0.00231631082514681	0.000156658824801563
0.965181125810902	0.00106846532988682	0.122460431345664	0.00169584149019910	0.00258848302671520	0.000160440881651846
0.964782099642619	0.00108031354993906	0.121811613193967	0.00170762149819633	0.00285727788080748	0.000163549312706607
0.964329242994198	0.00109833904971395	0.121098368222749	0.00172032432030207	0.00312554825276559	0.000170057758819480
0.963841168570815	0.00111378044611931	0.120323636560684	0.00173069035107443	0.00338815118222686	0.000171784379608651
0.963313909680053	0.00112659485947398	0.119481628911303	0.00174559040142640	0.00364895062518854	0.000174559456186811
0.962721247769116	0.00115051657849418	0.118568663814040	0.00176277611546935	0.00390935520094164	0.000180251814842676
0.962098129866369	0.00116716201320982	0.117599522662930	0.00177706425723062	0.00416595087814094	0.000183648543384836
0.961420400331097	0.00118749023304628	0.116562392861634	0.00179385201996650	0.00442031866870033	0.000188092251449391
0.960684871712417	0.00121225707136635	0.115465443026387	0.00180789531588221	0.00467385474049241	0.000194073306874059
0.959902142203240	0.00123537526144774	0.114302562521304	0.00182519831070891	0.00492430444758174	0.000199030818018347
0.959063937636480	0.00126250103982304	0.113059902637857	0.00184999873981074	0.00517349412463776	0.000205631717755571
0.958165940548674	0.00129229271257431	0.111756715273539	0.00187504803481249	0.00542092328828597	0.000211799026955418
0.957216923133878	0.00132019962600003	0.110395631477955	0.00189580419222213	0.00566727475731789	0.000217910091765346
0.956217797689481	0.00134478236654619	0.108968346808962	0.00191619147956009	0.00591014892136416	0.000222645134123319
0.955153880471124	0.00137509049294431	0.107477296984782	0.00193732050636237	0.00615342606349856	0.000228793547582791
0.954030618417987	0.00140351342256016	0.105926651616789	0.00195309747853982	0.00639490324685350	0.000233260994021668
0.952837498020373	0.00143575908987460	0.104293869304274	0.00198246171600545	0.00663652725272120	0.000239177653927243
0.951590396600546	0.00146538866103837	0.102607525085071	0.00200228337698950	0.00687718253725001	0.000244712870356940
0.950291915632937	0.00148439593661814	0.100872306455296	0.00200878355194005	0.00711409928406399	0.000246729863743221
0.948850214027388	0.00156878284136935	0.0989710986220250	0.00209856157836280	0.00736513763877332	0.000262917625689864
0.947448475512130	0.00155415605528152	0.0971581679740965	0.00205623886464682	0.00759648866054438	0.000257787734946701
0.945906827191603	0.00160295143066616	0.0951588847511206	0.00211263915947152	0.00784250403660775	0.000266898491949072
0.944273820104057	0.00167449260932809	0.0930961279991980	0.00217172065766792	0.00808978417146524	0.000276908757353957
0.942684415763150	0.00163897433050199	0.0910971516423018	0.00211800314659937	0.00832226196018489	0.000270762697035033
0.940921971810949	0.00168506599828609	0.0889220033744864	0.00215216952610218	0.00857103648158904	0.000277217608785845
0.939065258248029	0.00174950264039687	0.0866493786731923	0.00220866185606683	0.00882328693474221	0.000285485729968744
0.937122788632643	0.00183008788553173	0.0842924096043773	0.00228831783328965	0.00907933974032654	0.000295588394977570
0.935136195639369	0.00186694726434271	0.0819169051900586	0.00232006333238961	0.00933156113746969	0.000299625327336348
0.933138870318224	0.00183785715931438	0.0795625669448312	0.00226818313648488	0.00957898239553839	0.000296482876821314
0.930919676388128	0.00194486582394172	0.0769655204515821	0.00237470358308784	0.00984951567707870	0.000310730704624155
0.928699370152843	0.00196667076084805	0.0744053095289653	0.00238072598622400	0.0101058027261559	0.000308144248855432
0.926330640180151	0.00205315825677129	0.0717003789244016	0.00246486669417086	0.0103832681481973	0.000322765543486975
0.923963175648615	0.00204245247813272	0.0690193976249069	0.00244844978858951	0.0106458998218553	0.000318998651784691
0.921402243612156	0.00215121364735867	0.0661658133472715	0.00254213463029654	0.0109214862825917	0.000323314067003125
0.918950423800136	0.00204708948393398	0.0634511322727658	0.00242987835497747	0.0111894124310183	0.000316954560249472
0.916094321487286	0.00225509161285334	0.0603250032878724	0.00264603351667018	0.0114890165096161	0.000332622729807877
0.913376561091852	0.00221400511231875	0.0574008902057498	0.00258059090046574	0.0117781853713798	0.000335497686975348
0.910555298601911	0.00219416340831426	0.0543836217822539	0.00255430772858231	0.0120629712753461	0.000329638303610670
0.907398460099196	0.00244139221681551	0.0510350061024620	0.00280328844310898	0.0123789922417985	0.000346217310516965
0.904518824679621	0.00224319444512062	0.0480244575913884	0.00260681518469779	0.0126750303345355	0.000338995412813886
0.901207931058280	0.00241763250975743	0.0445986655977727	0.00276339287310938	0.0129956948114891	0.000350475873028371
0.897960680042042	0.00241035716295196	0.0412678239313853	0.00276000946868824	0.0133077722175193	0.000346704157804160
0.894510313012100	0.00251526190302030	0.0377738074731690	0.00285678639054087	0.0136390439045952	0.000355771093694201
0.890939386375011	0.00265193613763969	0.0341903279950198	0.00298593443340734	0.0139751637063827	0.000363697557315496
0.887483456569763	0.00249598976407852	0.0307695124886902	0.00284173844917485	0.0143074337329046	0.000360270531992742
0.883639059350165	0.00269527020434094	0.0269954966428419	0.00301832145789293	0.0146588833151069	0.000369815816055622
0.879780409615679	0.00276827564408053	0.0232442517396538	0.00309665546789474	0.0150155658093546	0.000379452177882094
0.875856285738361	0.00277489747326350	0.0194819778019564	0.00310438488071773	0.0153730850245575	0.000381386516319616
0.871904332728667	0.00267270984753527	0.0157298544713213	0.00302867677435748	0.0157257719189125	0.000370908089788621
0.867691034355223	0.00275512909703817	0.0117732401231094	0.00310703674569186	0.0160974060045959	0.000373572231129147
0.863339988184682	0.00285659235633824	0.00773302122767240	0.00320517527217903	0.0164863757060707	0.000385700969502274
0.858777102876492	0.00312718121497172	0.00355561896912623	0.00341562257128694	0.0168824813618753	0.000398905125185352
0.854537897724621	0.00274484749370729	-0.000295366294445518	0.00314862385089698	0.0172586876550570	0.000384039909620830
0.849634386330236	0.00309582784235543	-0.00468176320483803	0.00341674471005667	0.0176774524410142	0.000406095186837002
0.844994947685738	0.00290480264734777	-0.00879289301205002	0.00330779091300835	0.0180714762160087	0.000394202580668848
0.839908894319767	0.00318612059950442	-0.0132336647323122	0.00351627745976782	0.0185061446928153	0.000420514308077529
0.834805027703846	0.00331783024506453	-0.0176290593406344	0.00360916759291036	0.0189261900801059	0.000421413884810766
0.829821842605063	0.00303635960456936	-0.0218875773770921	0.00346143775361315	0.0193447313844895	0.000412790637682608
0.824368807147366	0.00326541097487375	-0.0264680207801565	0.00362888271668916	0.0197934637749304	0.000430026775137500
0.818844080746376	0.00342643528090901	-0.0310543534577071	0.00375488449217243	0.0202431588514385	0.000442160594504313
0.813413197070311	0.00320812906182032	-0.0355002097747457	0.00364196497644401	0.0206831159317909	0.000434425226624505
0.807470253328748	0.00357792892204649	-0.0402911368050320	0.00388695872790840	0.0211524795245732	0.000451041098819162
0.801677343727939	0.00346778965156465	-0.0448941916282513	0.00383896014528588	0.0216104020299219	0.000448096542185820
0.795687671484328	0.00344938988982448	-0.0495941357380178	0.00386091158066975	0.0220798467606820	0.000451058194928554
0.789363047718338	0.00374732604917242	-0.0544700086289514	0.00404685683709186	0.0225774665337798	0.000477611614106992
0.783017984686123	0.00384135082167529	-0.0592968319461950	0.00412374095443175	0.0230650357980124	0.000485082448734736
0.776623242883594	0.00374603221475739	-0.0640703393245424	0.00408377258581422	0.0235538243231032	0.000487648235129618
0.769993539996107	0.00378453275120255	-0.0689489973642916	0.00412935751131791	0.0240492862952921	0.000489256951161299
0.763236902207595	0.00377266783699752	-0.0738375365594426	0.00414846169461190	0.0245565006871070	0.000496503250487739
0.756133536530532	0.00411865288081660	-0.0788902600354695	0.00433985630102230	0.0250840707192890	0.000521102811748392
0.749010835435643	0.00420511498349799	-0.0838678103646835	0.00440086935822393	0.0256080575995322	0.000532364790638054
0.741823650677017	0.00408101686578772	-0.0888006579580836	0.00437155024451902	0.0261284496064878	0.000531701522750742
0.734377812798310	0.00414508645385043	-0.0938108126860448	0.00441966322589405	0.0266573682707925	0.000535350384318845
0.726676550474641	0.00438099374229889	-0.0988947561416318	0.00453786402702336	0.0272114204420944	0.000561056259321423
0.718883459305740	0.00446482852534924	-0.103934976323703	0.00458646948754103	0.0277524347690883	0.000563426469161133
0.710953090800039	0.00446400579044245	-0.108961718905162	0.00460171755217202	0.0283135208236994	0.000580051482222778
0.702633028123776	0.00489294083483604	-0.114131837299860	0.00479483380913974	0.0288851598681646	0.000605099199061450
0.694553471556258	0.00450557988271858	-0.119041156855438	0.00466585799603925	0.0294324090039119	0.000592592150715525
0.686077825858003	0.00452911686314640	-0.124068870529232	0.00468795739397921	0.0300086208293965	0.000605751637212068
0.677206145281433	0.00492122042649009	-0.129217281335415	0.00484670263002213	0.0306066817289227	0.000635812866610785
0.668157674116051	0.00534106194548366	-0.134330908671286	0.00499167180543115	0.0311974609254416	0.000653202746855238
0.659073033214323	0.00545409876130419	-0.139351974514015	0.00504537539747044	0.0317937913260256	0.000668561600504555
0.650300025964257	0.00464285936150749	-0.144073506541941	0.00481165687880462	0.0323730168936528	0.000658985193143216
0.640422092183131	0.00542380803031704	-0.149240560567847	0.00504560481777974	0.0330049583638233	0.000696352270656609
0.630716640652120	0.00558693467827054	-0.154187352541582	0.00510934571434381	0.0336212397166842	0.000712596993862252
0.621188624511058	0.00509422456866865	-0.158911804812083	0.00499366623094277	0.0342275143212760	0.000713073750566997
0.610875532671917	0.00556072465909152	-0.163859665618275	0.00512020628944465	0.0348728643547108	0.000742107023078092
0.600412121155175	0.00597437694832762	-0.168732691352657	0.00523186852000110	0.0355246217075693	0.000773282775238743
0.589751228594569	0.00639391592956911	-0.173532212822617	0.00532994385971138	0.0361788869907438	0.000801171982529014
0.579611966762397	0.00553517088510326	-0.177958046929547	0.00514740200432498	0.0367942612096037	0.000786046261072704
0.568101645795828	0.00655728167284613	-0.182797035326165	0.00537774215853237	0.0375010058840189	0.000844463784218652
0.556956363263431	0.00665485349173463	-0.187311607922302	0.00539341771340354	0.0381643441428512	0.000858629473343057
0.545449781407240	0.00702219685532587	-0.191786909320710	0.00544946337461062	0.0388519493137087	0.000889540824822578
0.533959430089934	0.00693737299296430	-0.196084119836806	0.00542188717350373	0.0395360407587096	0.000908716839504444
0.522310478709553	0.00674935442994597	-0.200270408909994	0.00539175971628695	0.0402204493617349	0.000922154773851626
0.509941437108450	0.00740919001249734	-0.204511146483607	0.00548290148040182	0.0409416244648522	0.000960661987613428
0.497626338191593	0.00760632286004794	-0.208528352611146	0.00548927504041472	0.0416587908228590	0.000989029588013893
0.484880062353651	0.00813957146276471	-0.212487075110370	0.00554106750119444	0.0423986023620024	0.00103089215711577
0.472127654205778	0.00825687074598566	-0.216242304598718	0.00552897125207225	0.0431284753349354	0.00105516482047574
0.459338025280085	0.00808744785753187	-0.219804244411208	0.00548502065887472	0.0438609807882916	0.00107522675362764
0.446010774562349	0.00843171732534769	-0.223298962198729	0.00548943718104154	0.0446265664339693	0.00111556012679565
0.432318601421287	0.00897710230868223	-0.226655851145064	0.00550906453679083	0.0453999536743646	0.00115389337443975
0.418657098087603	0.00908669088568429	-0.229779596366348	0.00547704847101982	0.0461758104455697	0.00118697143402161
0.404640278520143	0.00943362972277522	-0.232749622436918	0.00545637825127194	0.0469607531957555	0.00122091526200257
0.390469003188380	0.00965224364290683	-0.235514694341665	0.00542772304628602	0.0477579118153186	0.00125680435237143
0.376003602069876	0.00994273933472051	-0.238088965312930	0.00538704355338569	0.0485697300823933	0.00129673410149844
0.361386296328778	0.0101466371599355	-0.240432609848679	0.00534039326885879	0.0493901861774876	0.00133537814722642
0.346468596065744	0.0104894756052998	-0.242577409396058	0.00529104859412735	0.0502263404834342	0.00137897713228129
0.331356754345270	0.0107822474185087	-0.244482577330672	0.00522872668043656	0.0510614506135514	0.00141408136940905
0.316036485708384	0.0110386008638739	-0.246129236317634	0.00516470560849215	0.0519204637804042	0.00145903262467896
0.300323738914680	0.0116211724947939	-0.247553256448625	0.00508530707601601	0.0528021538360977	0.00151440636616310
0.284672784106629	0.0117792909464997	-0.248674464533964	0.00500779965026277	0.0536701761346364	0.00155032122495928
0.268663004005736	0.0121735120740953	-0.249553258258316	0.00490699710856926	0.0545738912556193	0.00160539944032654
0.252472973825171	0.0125291238553262	-0.250125447587393	0.00480021904144793	0.0554761551747814	0.00165009066223189
0.236160838990067	0.0128262359264558	-0.250359948543347	0.00474011085850269	0.0563948306016865	0.00169940256550661
0.219711951919289	0.0130541484698779	-0.250327337732917	0.00463172439070688	0.0573266821747101	0.00175004179227199
0.202957090350823	0.0134647839910816	-0.250027682152489	0.00448447146744628	0.0582738072074981	0.00180209800925897
0.186203788935009	0.0136262030711465	-0.249362266846443	0.00436715490783047	0.0592261571693623	0.00184845689465526
0.169185878911881	0.0139939709692595	-0.248335924676363	0.00425721564301284	0.0602022419760311	0.00190293186685464
0.152087017062793	0.0142674252557234	-0.246987324052757	0.00412118688365787	0.0611923315607877	0.00195750472760748
0.134711185029028	0.0147173509522839	-0.245248246731900	0.00402286791709256	0.0622055398919511	0.00201798240307635
0.117399093299135	0.0149223678171960	-0.243179717766397	0.00390601747993229	0.0632282460187884	0.00207357110600094
0.0999759708093536	0.0151453905898331	-0.240731399963833	0.00380367447233536	0.0642673905353653	0.00213017298330563
0.0823765975851585	0.0154751359795524	-0.237874699195291	0.00373767171249826	0.0653267505347718	0.00218954792596471
0.0647212250213091	0.0157356316612585	-0.234638116487682	0.00367553160922039	0.0664047738729877	0.00224741888630035
0.0470538916660033	0.0159460897769636	-0.230999909018279	0.00363844133266692	0.0674988481877492	0.00230424574840077
0.0291580870092818	0.0164148756723764	-0.226912638809966	0.00370040014057865	0.0686215346402731	0.00236731312543407
0.0114914498063249	0.0164749265257875	-0.222466186943847	0.00369440249422303	0.0697513757791079	0.00242015653773273
-0.00636071989479397	0.0167435074979825	-0.217527892367954	0.00381792854611462	0.0709126812947297	0.00247940909531682
-0.0241531928635700	0.0169536109475734	-0.212164696104078	0.00398626415357224	0.0720950095084074	0.00253816727410145
-0.0420787825113082	0.0173611880155295	-0.206286689119569	0.00431182640675337	0.0732958233257605	0.00259420773095227
-0.0597437782786991	0.0174152907170057	-0.200022762973280	0.00453013915498626	0.0745124141664454	0.00264529700954850
-0.0774964862106800	0.0176548269405315	-0.193211014952982	0.00493530124740227	0.0757447585527430	0.00269200394485167
-0.0950610876066095	0.0177606690773903	-0.185957497170725	0.00530410036244252	0.0769887599682421	0.00273401269478982
-0.112568996293716	0.0179209755593453	-0.178181302247478	0.00578182255929552	0.0782434820502601	0.00277175178680202
-0.129844015452557	0.0178833909505407	-0.169918078901487	0.00621352287873567	0.0795029350218992	0.00279955100050252
-0.147030528675937	0.0179635650386805	-0.161105736368307	0.00677688221827832	0.0807507983853926	0.00281557751925981
-0.163942617236258	0.0179245203213034	-0.151791432603325	0.00733085375153478	0.0819915525950223	0.00282275976048510
-0.180691388472083	0.0179436954528657	-0.141890799650337	0.00800572948841932	0.0832260936146596	0.00282709227887928
-0.197122176569960	0.0178629508702393	-0.131473766220696	0.00866733256148922	0.0844248088302554	0.00281639343547809
-0.213098018346832	0.0175830834845035	-0.120617495952002	0.00918606972411440	0.0855690682223613	0.00278087329221345
-0.228814231608126	0.0174273118582786	-0.109144535650718	0.00991143848094264	0.0866609123785581	0.00273858523866092
-0.244144695986071	0.0172371573646883	-0.0971233538574535	0.0106844727021989	0.0876973543199498	0.00268556614151433
-0.258833799756638	0.0167583061687595	-0.0847778547482422	0.0111479358599295	0.0886313509008929	0.00260573496077625
-0.273127864630711	0.0164238320111509	-0.0718403757706664	0.0118626752814491	0.0894791388959176	0.00252400439474122
-0.286901701170999	0.0160588133519252	-0.0584386436709653	0.0125886966845820	0.0902220121393868	0.00242369948248553
-0.299902445531199	0.0154528600805907	-0.0448174952383956	0.0130125065719095	0.0908146894640450	0.00231078966956251
-0.312398149944691	0.0149431876771789	-0.0306956411564182	0.0136318461070260	0.0912950985159420	0.00218721109709095
-0.324151859223012	0.0143297839286356	-0.0163798512472405	0.0140812770305162	0.0916127476196497	0.00205409446143169
-0.335199187427917	0.0137038523790110	-0.00181955445919467	0.0145203560686319	0.0917637705324214	0.00193550038496504
-0.345599991084210	0.0130793989117652	0.0129980874378974	0.0149736858331352	0.0917619069020701	0.00179176319324549
-0.355151533614368	0.0123516334041149	0.0277518558872662	0.0151654428729048	0.0916055935191459	0.00166679228162076
-0.364086542746317	0.0117251730021346	0.0427463229455495	0.0155833481676749	0.0912608515231876	0.00155489520753688
-0.372187052617585	0.0109797277723954	0.0575242782914533	0.0156561484878284	0.0907477902055479	0.00143094797357504
-0.379643967616616	0.0103230018876052	0.0723813483702621	0.0159019089745044	0.0900621014010544	0.00132220004795877
-0.386370802267747	0.00962346469802192	0.0869898348275117	0.0159421770968737	0.0892107418768569	0.00124095611348250
-0.392436776413913	0.00897088043341020	0.101417268410929	0.0159887179198946	0.0881887599592553	0.00119077226538607
-0.397881254989224	0.00833737313247584	0.115636371503507	0.0160257668842154	0.0870085526989478	0.00116752521395792
-0.402709479984259	0.00770060444178806	0.129443078672781	0.0158448322049934	0.0856898106124105	0.00113931113984962
